Time,Angle 1,Angle 2,Angle 3,Angle 4,Angle 5,Angle 6,Power
0.012,-182.993,-90.0062,89.9904,0.0029,-89.9763,180.011,542.1142681228786
0.024,-182.967,-90.0062,89.9475,0.0029,-89.9354,180.011,574.2227163915912
0.036000000000000004,-182.91099999999997,-90.0062,89.8545,0.0029,-89.8467,180.011,535.4344026149282
0.048,-182.815,-90.0062,89.6941,0.0029,-89.6936,180.011,572.36183240115
0.06,-182.669,-90.0062,89.449,0.0029,-89.4598,180.011,578.1193556448454
0.07200000000000001,-182.46099999999998,-90.0062,89.102,0.0029,-89.1287,180.011,557.6923320246499
0.084,-182.18200000000002,-90.0062,88.6357,0.0029,-88.6838,180.011,566.5532008979418
0.096,-181.82299999999998,-90.0062,88.0363,0.0029,-88.1118,180.011,545.4990630051627
0.10800000000000001,-181.38299999999998,-90.0062,87.3012,0.0029,-87.4105,180.011,612.2957162141767
0.12,-180.862,-90.0062,86.4312,0.0029,-86.5804,180.011,596.0243961028175
0.132,-180.26,-90.0062,85.4266,0.0029,-85.6218,180.011,547.7224317032055
0.14400000000000002,-179.579,-90.0062,84.2893,0.0029,-84.5366,180.011,674.2385529666623
0.156,-178.828,-90.0062,83.0345,0.0029,-83.3394,180.011,972.056784396369
0.168,-178.017,-90.0062,81.6792,0.0029,-82.0464,180.011,1636.7123073126584
0.18,-177.15599999999998,-90.0062,80.241,0.0029,-80.6741,180.011,2497.572440865711
0.192,-176.25400000000002,-90.0062,78.7358,0.0029,-79.238,180.011,4093.5285142013913
0.204,-175.322,-90.0062,77.1779,0.0029,-77.7516,180.011,5960.673901973523
0.21600000000000003,-174.365,-90.0062,75.5795,0.0029,-76.2265,180.011,8059.596418179412
0.228,-173.39,-90.0062,73.9523,0.0029,-74.6739,180.011,10132.768259184271
0.24,-172.405,-90.0062,72.3065,0.0029,-73.1036,180.011,11453.07353800443
0.252,-171.41400000000002,-90.0062,70.6516,0.0029,-71.5247,180.011,13011.911000392625
0.264,-170.421,-90.0062,68.9954,0.0029,-69.9444,180.011,15007.455892048732
0.276,-169.424,-90.0062,67.3394,0.0029,-68.3645,180.011,15151.380249534921
0.28800000000000003,-168.419,-90.0062,65.6835,0.0029,-66.7845,180.011,13915.725230616486
0.3,-167.4,-90.0062,64.0274,0.0029,-65.2045,180.011,12807.905512390518
0.312,-166.359,-90.0062,62.3714,0.0029,-63.6244,180.011,11619.243097736544
0.324,-165.287,-90.0062,60.7155,0.0029,-62.0444,180.011,9508.05251266782
0.336,-164.173,-90.0062,59.059,0.0029,-60.4639,180.011,8279.010115294264
0.348,-163.006,-90.0062,57.4073,0.0029,-58.888000000000005,180.011,7268.40024467541
0.36,-161.785,-90.0062,55.7756,0.0029,-57.3311,180.011,5733.511768474226
0.37200000000000005,-160.509,-90.0062,54.1815,0.0029,-55.8101,180.011,4737.62221827064
0.384,-159.18,-90.0061,52.6421,0.0029,-54.3414,180.011,4199.644763487587
0.396,-157.80200000000002,-90.0061,51.1729,0.0029,-52.9395,180.011,3382.080854887847
0.408,-156.378,-90.0061,49.7859,0.0029,-51.6161,180.011,3879.7369500578616
0.42,-154.91299999999998,-90.0061,48.4903,0.0029,-50.38,180.011,4341.784333670278
0.43200000000000005,-153.41,-90.0061,47.2929,0.0029,-49.2375,180.011,4329.114784681131
0.444,-151.874,-90.0061,46.1972,0.0029,-48.1921,180.011,5513.777947536769
0.456,-150.309,-90.0061,45.2035,0.0029,-47.2439,180.011,6643.47644272933
0.46799999999999997,-148.719,-90.0061,44.3091,0.0029,-46.3906,180.011,7275.843786392888
0.48,-147.106,-90.0061,43.5092,0.0029,-45.6274,180.011,7070.379896501099
0.49200000000000005,-145.475,-90.0061,42.7976,0.0029,-44.9485,180.011,5309.320802341872
0.504,-143.828,-90.0061,42.1677,0.0029,-44.3475,180.011,3652.8740895614546
0.516,-142.16899999999998,-90.0061,41.613,0.0029,-43.8182,180.011,2798.749120289976
0.528,-140.501,-90.0062,41.1272,0.0029,-43.3548,180.011,1284.0477089704577
0.54,-138.826,-90.0062,40.7044,0.0029,-42.9513,180.011,797.852523579936
0.552,-137.14700000000002,-90.0062,40.3389,0.0029,-42.6026,180.011,611.3182384089504
0.564,-135.467,-90.0062,40.0254,0.0029,-42.3035,180.011,517.4855742816447
0.5760000000000001,-133.787,-90.0062,39.7588,0.0029,-42.0491,180.011,643.027480165424
0.588,-132.107,-90.0062,39.534,0.0029,-41.8346,180.011,861.1072483527556
0.6,-130.42700000000002,-90.0062,39.3467,0.0029,-41.6558,180.011,1129.211920513807
0.612,-128.747,-90.0062,39.1925,0.0029,-41.5087,180.011,1227.5756483662424
0.624,-127.06700000000001,-90.0062,39.0675,0.0029,-41.3895,180.011,1387.9216184758138
0.636,-125.387,-90.0062,38.9681,0.0029,-41.2947,180.011,1600.856081108679
0.648,-123.70700000000001,-90.0062,38.8906,0.0029,-41.2206,180.011,1861.9375436170947
0.66,-122.027,-90.0062,38.8316,0.0029,-41.1644,180.011,1860.6597237784886
0.672,-120.34700000000001,-90.0062,38.7878,0.0029,-41.1226,180.011,2125.366519585346
0.684,-118.667,-90.0062,38.7565,0.0029,-41.0929,180.011,1941.356499186519
0.696,-116.98700000000001,-90.0062,38.7352,0.0029,-41.0725,180.011,1625.9466283463616
0.708,-115.307,-90.0062,38.7215,0.0029,-41.0594,180.011,1788.0720204023946
0.72,-113.62700000000001,-90.0062,38.7134,0.0029,-41.0516,180.011,1828.9190642043557
0.732,-111.947,-90.0062,38.709,0.0029,-41.0474,180.011,1878.737572082867
0.7440000000000001,-110.26700000000001,-90.0062,38.7069,0.0029,-41.0454,180.011,2238.9885162735177
0.7559999999999999,-108.587,-90.0062,38.7063,0.0029,-41.0448,180.011,2436.903719973745
0.768,-106.90700000000001,-90.0062,38.7062,0.0029,-41.0447,180.011,2568.0975029068672
0.78,-105.227,-90.0062,38.7062,0.0029,-41.0447,180.011,2348.2958784815482
0.792,-103.54700000000001,-90.0062,38.7062,0.0029,-41.0447,180.011,2204.236499807031
0.804,-101.867,-90.0062,38.7062,0.0029,-41.0447,180.011,2168.5428034770853
0.816,-100.18700000000001,-90.0062,38.7062,0.0029,-41.0447,180.011,2024.8678601237127
0.828,-98.5071,-90.0062,38.7062,0.0029,-41.0447,180.011,2244.099353182005
0.84,-96.82700000000001,-90.0062,38.7062,0.0029,-41.0447,180.011,2450.611364908528
0.852,-95.1471,-90.0062,38.7062,0.0029,-41.0447,180.011,2488.5051934415833
0.8640000000000001,-93.4671,-90.0062,38.7062,0.0029,-41.0447,180.011,2586.9517527650523
0.8759999999999999,-91.7871,-90.0062,38.7062,0.0029,-41.0447,180.011,2349.8257848888484
0.888,-90.1071,-90.0062,38.7062,0.0029,-41.0447,180.011,2352.948594434301
0.9,-88.4271,-90.0062,38.7062,0.0029,-41.0447,180.011,2152.1195800098617
0.912,-86.7471,-90.0062,38.7062,0.0029,-41.0447,180.011,2090.9847853508886
0.924,-85.0671,-90.0062,38.7062,0.0029,-41.0447,180.011,2292.3794643692745
0.9359999999999999,-83.3871,-90.0062,38.7062,0.0029,-41.0447,180.011,2411.732369422049
0.948,-81.7071,-90.0062,38.7062,0.0029,-41.0447,180.011,2564.286033386049
0.96,-80.0271,-90.0062,38.7062,0.0029,-41.0447,180.011,2571.3541410298726
0.972,-78.347,-90.0062,38.7062,0.0029,-41.0447,180.011,2380.2341830316486
0.9840000000000001,-76.6671,-90.0062,38.7062,0.0029,-41.0447,180.011,2149.9300945841787
0.996,-74.9872,-90.0062,38.7062,0.0029,-41.0447,180.011,2177.915199992638
1.008,-73.3076,-90.0062,38.7062,0.0029,-41.0447,180.011,2181.603656136942
1.02,-71.6274,-90.0062,38.7062,0.0029,-41.0447,180.011,2296.114766960773
1.032,-69.9464,-90.0062,38.7064,0.0029,-41.0447,180.011,2490.3082413927136
1.044,-68.2668,-90.006,38.7071,0.0029,-41.0447,180.011,2478.22312419252
1.056,-66.5868,-90.0054,38.7097,0.0029,-41.0444,180.011,2423.5382109994407
1.068,-64.907,-90.0041,38.7158,0.0029,-41.0437,180.011,2338.8896618763074
1.08,-63.2273,-90.0014,38.7275,0.0029,-41.0424,180.011,2198.9381962053876
1.092,-61.5473,-89.9968,38.7479,0.0029,-41.0402,180.011,2262.7237495028016
1.104,-59.868,-89.9894,38.7805,0.0029,-41.0366,180.011,2170.9525384826643
1.1159999999999999,-58.1939,-89.9783,38.8294,0.0029,-41.0312,180.011,2241.5015375915636
1.128,-56.5268,-89.9624,38.8998,0.0029,-41.0234,180.011,2559.227416894687
1.14,-54.8689,-89.9402,38.9972,0.0029,-41.0127,180.011,2370.793677600614
1.1520000000000001,-53.2245,-89.9107,39.1278,0.0029,-40.9983,180.011,2577.235289560369
1.1640000000000001,-51.5962,-89.8721,39.2978,0.0029,-40.9796,180.011,2340.401253819895
1.176,-49.9867,-89.8232,39.5134,0.0029,-40.9558,180.011,1896.4803719837914
1.188,-48.4012,-89.7626,39.7811,0.0029,-40.9264,180.011,2317.96131229079
1.2,-46.8435,-89.6885,40.1078,0.0029,-40.8904,180.011,2285.3741246105897
1.212,-45.316,-89.5993,40.5013,0.0029,-40.847,180.011,2305.7758974240824
1.224,-43.826,-89.4933,40.9689,0.0029,-40.7955,180.011,2598.6836449159155
1.236,-42.3797,-89.369,41.5175,0.0029,-40.735,180.011,2111.1350897623233
1.248,-40.9846,-89.2249,42.1537,0.0029,-40.665,180.011,1708.8497704783576
1.26,-39.6492,-89.0598,42.8817,0.0029,-40.5849,180.011,1586.1725176669736
1.272,-38.3851,-88.8738,43.7025,0.0029,-40.4944,180.011,1380.9157622214057
1.284,-37.2022,-88.6671,44.6145,0.0029,-40.3939,180.011,1142.5911515137877
1.296,-36.1106,-88.4412,45.611000000000004,0.00290001,-40.2841,180.011,1036.3575267226006
1.308,-35.1163,-88.1979,46.6845,0.00289996,-40.1659,180.011,1209.2176494005898
1.32,-34.2231,-87.9393,47.8255,0.00290018,-40.0403,180.011,1171.5577500359086
1.3319999999999999,-33.4293,-87.6669,49.0269,0.00289928,-39.9079,180.011,1359.8599137333968
1.344,-32.7317,-87.3825,50.2821,0.00290281,-39.7697,180.011,1729.1825634165377
1.3559999999999999,-32.1257,-87.0874,51.5839,0.00288933,-39.6263,180.011,1617.4064831184369
1.368,-31.6044,-86.7831,52.9268,0.00295457,-39.4783,180.011,1895.9136076754937
1.38,-31.1594,-86.4702,54.3073,0.00301037,-39.3263,180.011,2329.991035555112
1.392,-30.7829,-86.1494,55.7225,0.00299711,-39.1704,180.011,2320.221994378726
1.4040000000000001,-30.4677,-85.8219,57.1675,0.00300077,-39.0112,180.011,2418.2933660005
1.416,-30.2071,-85.4883,58.6391,0.00299981,-38.8491,180.011,2311.863285018293
1.4280000000000002,-29.9943,-85.149,60.1361,0.00300005,-38.6842,180.011,2071.665258720733
1.44,-29.8236,-84.8052,61.6534,0.00299999,-38.5171,180.011,2006.14052923649
1.452,-29.6895,-84.4572,63.1882,0.003,-38.3479,180.011,1985.2446541855688
1.464,-29.5863,-84.1055,64.7403,0.003,-38.177,180.011,2114.9938862995887
1.476,-29.5098,-83.7508,66.3049,0.003,-38.0047,180.011,2408.7064695207123
1.4880000000000002,-29.4552,-83.3935,67.8815,0.003,-37.830999999999996,180.011,2602.3494620777024
1.5,-29.4183,-83.0341,69.4671,0.003,-37.6563,180.011,2764.1812570216325
1.5119999999999998,-29.3949,-82.6734,71.0584,0.003,-37.481,180.011,3279.036945429322
1.524,-29.3813,-82.3114,72.6557,0.003,-37.3051,180.011,3352.8992671900583
1.536,-29.3742,-81.9492,74.2537,0.003,-37.1291,180.011,3260.3711771970907
1.548,-29.3713,-81.587,75.8516,0.003,-36.953,180.011,3186.076488162169
1.56,-29.3703,-81.2253,77.4473,0.003,-36.7773,180.011,3433.2081115876395
1.5719999999999998,-29.3701,-80.8648,79.0377,0.003,-36.6021,180.011,2898.174641836066
1.584,-29.3701,-80.5058,80.6222,0.003,-36.4275,180.011,2745.4485178180257
1.5959999999999999,-29.3701,-80.1489,82.1962,0.003,-36.2541,180.011,2678.875950860431
1.608,-29.3701,-79.7951,83.7576,0.003,-36.0822,180.011,2371.89273931874
1.62,-29.3701,-79.4442,85.3055,0.003,-35.9117,180.011,2006.500420718567
1.632,-29.3701,-79.0973,86.8361,0.003,-35.7431,180.011,1591.3487420774097
1.6440000000000001,-29.3701,-78.7549,88.3465,0.003,-35.5767,180.011,1948.731401172625
1.656,-29.3701,-78.4177,89.8343,0.003,-35.4128,180.011,1699.8339866509384
1.6680000000000001,-29.3701,-78.0865,91.2958,0.003,-35.2518,180.011,1121.7367655825012
1.68,-29.3701,-77.7618,92.7283,0.003,-35.094,180.011,1404.6858985393526
1.692,-29.3701,-77.4447,94.1274,0.003,-34.9399,180.011,1048.4872563168653
1.704,-29.3701,-77.13600000000001,95.4894,0.003,-34.7899,180.011,499.11708565205583
1.716,-29.3701,-76.8369,96.8089,0.003,-34.6445,180.011,502.50509174193695
1.7280000000000002,-29.3701,-76.5503,98.0722,0.003,-34.5071,180.011,411.593929603664
1.74,-29.3701,-76.2802,99.258,0.003,-34.3933,180.011,419.5290878054273
1.7519999999999998,-29.3701,-76.0219,100.37700000000001,0.003,-34.3238,180.011,386.345326659743
1.764,-29.3701,-75.7696,101.445,0.003,-34.3176,180.011,418.0957362290514
1.776,-29.3701,-75.5172,102.479,0.003,-34.3831,180.012,381.6762501250545
1.788,-29.3701,-75.2641,103.47,0.003,-34.5243,180.012,416.1454367831819
1.8,-29.3701,-75.0116,104.40700000000001,0.003,-34.7415,180.012,402.7224160094072
1.8119999999999998,-29.3701,-74.7611,105.28399999999999,0.003,-35.0312,180.012,380.9736673698126
1.824,-29.3701,-74.5147,106.09200000000001,0.003,-35.3858,180.012,379.24442661215096
1.8359999999999999,-29.3701,-74.2745,106.82600000000001,0.003,-35.7917,180.012,394.8606407870889
1.848,-29.3701,-74.0431,107.485,0.003,-36.2277,180.012,401.3692392859289
1.86,-29.3702,-73.8209,108.079,0.003,-36.6727,180.012,379.5080908710012
1.8719999999999999,-29.3702,-73.6109,108.605,0.003,-37.1049,180.012,384.5723675649446
1.8840000000000001,-29.3702,-73.4162,109.066,0.00299999,-37.5148,180.012,419.02723855802736
1.896,-29.3702,-73.2347,109.47,0.00300003,-37.9078,180.011,375.86160037500446
1.9080000000000001,-29.3702,-73.0674,109.82,0.00299989,-38.2803,180.011,410.89867633192824
1.92,-29.3702,-72.9149,110.12,0.00300042,-38.6276,180.011,384.5791996308534
1.932,-29.3702,-72.7775,110.376,0.00299844,-38.9461,180.011,400.09542725268636
1.944,-29.3702,-72.6557,110.59100000000001,0.00300581,-39.2326,180.011,388.39537853783185
1.956,-29.3702,-72.5498,110.772,0.00290842,-39.4841,180.011,401.0854859703221
1.9680000000000002,-29.3702,-72.4599,110.92299999999999,0.00289778,-39.6974,180.011,401.2442367853317
1.98,-29.3702,-72.3859,111.046,0.00290059,-39.8714,180.011,385.0752943251129
1.992,-29.3702,-72.3282,111.14,0.00289984,-40.006,180.011,398.1012222526669
2.004,-29.3702,-72.2872,111.206,0.00290004,-40.1013,180.011,427.40611447243157
2.016,-29.3702,-72.263,111.245,0.00289999,-40.1571,180.011,393.2975941473209
2.028,-29.3702,-72.2558,111.257,0.0029,-40.1735,180.011,400.0472602027302
2.04,-29.3702,-72.2657,111.241,0.0029,-40.1506,180.011,392.88011711986195
2.052,-29.3702,-72.2927,111.197,0.0029,-40.0883,180.011,376.25374263825046
2.064,-29.3702,-72.3365,111.126,0.0029,-39.9866,180.011,404.15074996563345
2.076,-29.3702,-72.3969,111.027,0.0029,-39.8455,180.011,399.71724403787937
2.088,-29.3702,-72.4736,110.9,0.0029,-39.6652,180.011,402.97662012420034
2.1,-29.3702,-72.5661,110.745,0.0029,-39.4456,180.011,401.45663434548305
2.112,-29.3702,-72.6745,110.55799999999999,0.0029,-39.1883,180.011,424.1656215941714
2.124,-29.3702,-72.7988,110.336,0.0029,-38.8964,180.011,428.44177141915225
2.136,-29.3702,-72.9386,110.072,0.0029,-38.573,180.011,391.911124980772
2.148,-29.3702,-73.0934,109.76299999999999,0.0029,-38.2216,180.011,390.85277480254763
2.16,-29.3702,-73.2629,109.40299999999999,0.0029,-37.8457,180.011,402.9216224403609
2.1719999999999997,-29.3702,-73.4462,108.98899999999999,0.00290001,-37.4501,180.012,434.03224735892354
2.184,-29.3702,-73.645,108.51299999999999,0.00289997,-37.0331,180.012,559.7478974939511
2.1959999999999997,-29.3702,-73.8577,107.973,0.00290008,-36.5977,180.012,1148.8633673085124
2.208,-29.3702,-74.0804,107.37100000000001,0.00289989,-36.1551,180.012,1356.6697716585716
2.22,-29.3702,-74.3114,106.706,0.00289923,-35.7257,180.012,1439.1926682703645
2.2319999999999998,-29.3702,-74.551,105.96600000000001,0.00291062,-35.3289,180.012,1447.3098590181598
2.244,-29.3702,-74.7976,105.15,0.00300965,-34.9842,180.012,1590.9461290695513
2.256,-29.3702,-75.0492,104.26299999999999,0.00299729,-34.704,180.012,1857.9209406724076
2.2680000000000002,-29.3702,-75.3045,103.309,0.00300059,-34.4964,180.012,2273.2955952634943
2.28,-29.3702,-75.5615,102.29799999999999,0.0029999000000000002,-34.3662,180.012,2740.3423563113515
2.292,-29.3702,-75.8195,101.235,0.00300001,-34.3131,180.012,3207.581532084307
2.3040000000000003,-29.3701,-76.078,100.13600000000001,0.003,-34.3333,180.011,3760.7588956688573
2.316,-29.3701,-76.3413,98.991,0.003,-34.415,180.011,4155.838570657918
2.3280000000000003,-29.3701,-76.6155,97.7857,0.003,-34.5367,180.011,4098.285945549311
2.34,-29.3701,-76.905,96.5086,0.003,-34.6775,180.011,4002.3697528977964
2.352,-29.3701,-77.2061,95.1801,0.003,-34.8239,180.011,4914.149220110157
2.364,-29.3701,-77.5162,93.8118,0.003,-34.9746,180.011,5674.47127903113
2.376,-29.3701,-77.8346,92.4067,0.003,-35.1294,180.011,5823.436589977067
2.388,-29.3701,-78.1604,90.9694,0.003,-35.2878,180.011,6215.580001866591
2.4,-29.3701,-78.4925,89.5043,0.003,-35.4491,180.011,6403.375897438649
2.412,-29.3701,-78.8304,88.0134,0.003,-35.6133,180.011,6065.84498171932
2.424,-29.3701,-79.1736,86.4994,0.003,-35.7801,180.011,4921.688975094927
2.436,-29.3701,-79.5215,84.9645,0.003,-35.9492,180.011,4765.5240838204245
2.448,-29.3701,-79.8729,83.4139,0.003,-36.12,180.011,6363.436341119453
2.46,-29.3701,-80.22800000000001,81.8473,0.00300001,-36.2926,180.011,8420.241471577632
2.472,-29.3701,-80.5862,80.2669,0.00299999,-36.4666,180.011,7655.698024520061
2.484,-29.3702,-80.9464,78.6777,0.003,-36.6417,180.011,6579.855287014862
2.496,-29.3708,-81.3085,77.0803,0.00300018,-36.8177,180.011,7889.244313821296
2.508,-29.3728,-81.6718,75.4774,0.00299884,-36.9942,180.011,7416.373464622773
2.52,-29.3778,-82.036,73.8704,0.00300579,-37.1712,180.011,5658.308061032252
2.532,-29.3878,-82.4004,72.2626,0.00291128,-37.3483,180.011,5185.484303177148
2.544,-29.4055,-82.7648,70.6553,0.0028963,-37.5254,180.011,4900.946392098008
2.556,-29.4339,-83.1284,69.0505,0.00290121,-37.7022,180.011,3697.1157858615265
2.568,-29.476999999999997,-83.4908,67.4518,0.00289961,-37.8783,180.011,4511.845033688338
2.58,-29.5392,-83.8514,65.8608,0.00290012,-38.0535,180.011,5287.487072308435
2.592,-29.6258,-84.21,64.279,0.00289996,-38.2278,180.011,5231.894854908215
2.6039999999999996,-29.7424,-84.5656,62.7098,0.00290001,-38.4006,180.011,5754.568363612007
2.616,-29.8949,-84.9177,61.1562,0.0029,-38.5717,180.011,5262.801916664233
2.628,-30.0897,-85.266,59.6196,0.0029,-38.7411,180.011,3761.178411284362
2.64,-30.333000000000002,-85.6097,58.1029,0.0029,-38.9081,180.011,3730.6171584972403
2.6519999999999997,-30.6309,-85.9479,56.6112,0.0029,-39.0723,180.011,2876.7434462999677
2.6639999999999997,-30.99,-86.2799,55.1463,0.0029,-39.2338,180.011,1813.867327400221
2.676,-31.4172,-86.6053,53.7108,0.0029,-39.3919,180.011,2625.65092710189
2.688,-31.9189,-86.9225,52.3113,0.0029,-39.546,180.011,2922.3093479361764
2.7,-32.5028,-87.23100000000001,50.95,0.0029,-39.696,180.011,2356.0358390078286
2.7119999999999997,-33.1738,-87.529,49.6354,0.0029,-39.8408,180.011,3834.7945044823614
2.7239999999999998,-33.937,-87.8148,48.3741,0.0029,-39.9797,180.011,3199.3106729001483
2.736,-34.7957,-88.0866,47.1751,0.0029,-40.1118,180.011,1936.1010392312685
2.748,-35.7501,-88.34200000000001,46.0485,0.0029,-40.2359,180.011,2295.9948790018207
2.76,-36.7964,-88.5785,45.0049,0.0029,-40.3508,180.011,1513.7899285971698
2.772,-37.9286,-88.7945,44.0522,0.0029,-40.4558,180.011,1042.8974842036625
2.784,-39.1375,-88.9885,43.1958,0.0029,-40.5502,180.011,1255.746846697875
2.7960000000000003,-40.4144,-89.1606,42.4365,0.0029,-40.6338,180.011,1924.537044294235
2.8080000000000003,-41.7505,-89.3112,41.772,0.0029,-40.707,180.011,1927.683261914894
2.82,-43.1385,-89.4414,41.1976,0.0029,-40.7702,180.011,2690.208587969439
2.832,-44.5724,-89.5528,40.7063,0.0029,-40.8244,180.011,3200.709490228945
2.844,-46.0474,-89.6471,40.2902,0.0029,-40.8702,180.011,3244.4306904566515
2.8560000000000003,-47.5588,-89.7262,39.9412,0.0029,-40.9086,180.011,3685.8238871463614
2.8680000000000003,-49.1008,-89.7918,39.6521,0.0029,-40.9404,180.011,3866.340633820598
2.88,-50.6715,-89.8453,39.4157,0.0029,-40.9664,180.011,3266.79319487876
2.892,-52.2666,-89.8884,39.2255,0.0029,-40.9875,180.011,2852.6301082771683
2.904,-53.8822,-89.9224,39.0754,0.0029,-41.004,180.011,3028.675518695556
2.9160000000000004,-55.5163,-89.9486,38.9597,0.0029,-41.0167,180.011,2631.060922484666
2.928,-57.1651,-89.9683,38.8728,0.0029,-41.0263,180.011,3069.5218334594388
2.94,-58.8252,-89.9825,38.8101,0.0029,-41.0332,180.011,3362.4304340286367
2.952,-60.495,-89.9924,38.7668,0.0029,-41.038000000000004,180.011,3776.4274352783927
2.964,-62.1702,-89.9988,38.7387,0.0029,-41.041000000000004,180.011,4001.5570020945343
2.9760000000000004,-63.8503,-90.0026,38.7218,0.0029,-41.0429,180.011,4223.1396897464565
2.988,-65.5304,-90.0047,38.7124,0.0029,-41.0439,180.011,4176.364511806163
3.0,-67.21,-90.0057,38.7081,0.0029,-41.0444,180.011,3804.877202066078
