Time,Angle 1,Angle 2,Angle 3,Angle 4,Angle 5,Angle 6,Power
0.012,-182.993,-90.0062,89.9904,0.0029,-89.9763,180.011,521.5369801262723
0.024,-182.967,-90.0062,89.9475,0.0029,-89.9354,180.011,553.9553667866579
0.036000000000000004,-182.91099999999997,-90.0062,89.8545,0.0029,-89.8467,180.011,589.5898780052219
0.048,-182.815,-90.0062,89.6941,0.0029,-89.6936,180.011,510.8068397589977
0.06,-182.669,-90.0062,89.449,0.0029,-89.4598,180.011,574.054923782204
0.07200000000000001,-182.46099999999998,-90.0062,89.102,0.0029,-89.1287,180.011,527.8755024327099
0.084,-182.18200000000002,-90.0062,88.6357,0.0029,-88.6838,180.011,578.0943051946537
0.096,-181.82299999999998,-90.0062,88.0363,0.0029,-88.1118,180.011,583.4461363293775
0.10800000000000001,-181.38299999999998,-90.0062,87.3012,0.0029,-87.4105,180.011,539.9488247264658
0.12,-180.862,-90.0062,86.4312,0.0029,-86.5803,180.011,597.1812719976317
0.132,-180.261,-90.0062,85.427,0.0029,-85.6222,180.011,511.4321816344865
0.14400000000000002,-179.583,-90.0062,84.2959,0.0029,-84.54299999999999,180.011,710.3069664160015
0.156,-178.838,-90.0062,83.0509,0.0029,-83.3551,180.011,964.0304557129242
0.168,-178.033,-90.0062,81.707,0.0029,-82.0729,180.011,1527.1436410037468
0.18,-177.179,-90.0062,80.28,0.0029,-80.7113,180.011,2522.9896747045777
0.192,-176.28400000000002,-90.0062,78.7851,0.0029,-79.285,180.011,4003.306196361066
0.204,-175.356,-90.0062,77.236,0.0029,-77.8071,180.011,5900.1755002805785
0.21600000000000003,-174.40400000000002,-90.0062,75.6457,0.0029,-76.2897,180.011,8022.781956901303
0.228,-173.435,-90.0062,74.02600000000001,0.0029,-74.7442,180.011,10084.989163569831
0.24,-172.453,-90.0062,72.3864,0.0029,-73.1798,180.011,11456.440264838784
0.252,-171.46400000000003,-90.0062,70.7356,0.0029,-71.6048,180.011,13010.35027949837
0.264,-170.472,-90.0062,69.0801,0.0029,-70.0253,180.011,14573.234132223099
0.276,-169.475,-90.0062,67.4241,0.0029,-68.4452,180.011,14507.982311564192
0.28800000000000003,-168.47099999999998,-90.0062,65.7681,0.0029,-66.8652,180.011,13820.05817540476
0.3,-167.453,-90.0062,64.1121,0.0029,-65.2853,180.011,12776.27296437199
0.312,-166.41299999999998,-90.0062,62.4561,0.0029,-63.7052,180.011,11728.720578404856
0.324,-165.343,-90.0062,60.8,0.0029,-62.125,180.011,9865.163154228587
0.336,-164.232,-90.0062,59.1446,0.0029,-60.5456,180.011,8689.04731304536
0.348,-163.071,-90.0062,57.497,0.0029,-58.9735,180.011,7357.378677784514
0.36,-161.859,-90.0062,55.871,0.0029,-57.4221,180.011,6201.463884090838
0.37200000000000005,-160.593,-90.0062,54.2828,0.0029,-55.9067,180.011,5174.390032873925
0.384,-159.275,-90.0061,52.748000000000005,0.0029,-54.4424,180.011,4577.06851088551
0.396,-157.907,-90.0061,51.2809,0.0029,-53.0426,180.011,3777.8931016958873
0.408,-156.493,-90.0061,49.8933,0.0029,-51.7186,180.011,3741.0088202382585
0.42,-155.036,-90.0061,48.5947,0.0029,-50.4796,180.011,4563.557732508585
0.43200000000000005,-153.541,-90.0061,47.3921,0.0029,-49.3322,180.011,4337.861675506069
0.444,-152.011,-90.0061,46.2896,0.0029,-48.2803,180.011,5677.525693478457
0.456,-150.45,-90.0061,45.2882,0.0029,-47.3248,180.011,6554.6707624887595
0.46799999999999997,-148.863,-90.0061,44.3857,0.0029,-46.4637,180.011,6868.223811703131
0.48,-147.253,-90.0061,43.5777,0.0029,-45.6928,180.011,6704.221633967907
0.49200000000000005,-145.623,-90.0061,42.8584,0.0029,-45.0065,180.011,5093.18270419266
0.504,-143.977,-90.0061,42.2213,0.0029,-44.3987,180.011,3932.2634403431666
0.516,-142.319,-90.0061,41.6601,0.0029,-43.8631,180.011,2883.066800025071
0.528,-140.651,-90.0062,41.1682,0.0029,-43.3939,180.011,1684.2273396653277
0.54,-138.977,-90.0062,40.74,0.0029,-42.9853,180.011,1165.2592367752209
0.552,-137.298,-90.0062,40.3695,0.0029,-42.6318,180.011,876.2353570504154
0.564,-135.618,-90.0062,40.0516,0.0029,-42.3285,180.011,784.9749932321786
0.5760000000000001,-133.938,-90.0062,39.781,0.0029,-42.0703,180.011,1024.2512012037619
0.588,-132.25799999999998,-90.0062,39.5527,0.0029,-41.8524,180.011,1009.9763570426883
0.6,-130.578,-90.0062,39.3621,0.0029,-41.6705,180.011,1106.113401812776
0.612,-128.898,-90.0062,39.2051,0.0029,-41.5208,180.011,1238.561261054294
0.624,-127.21799999999999,-90.0062,39.0777,0.0029,-41.3992,180.011,1586.1848750768559
0.636,-125.538,-90.0062,38.9761,0.0029,-41.3023,180.011,1649.3644796759002
0.648,-123.85799999999999,-90.0062,38.8968,0.0029,-41.2265,180.011,1817.6497106790594
0.66,-122.178,-90.0062,38.8362,0.0029,-41.1688,180.011,2156.9146779373045
0.672,-120.49799999999999,-90.0062,38.7912,0.0029,-41.1258,180.011,1945.584510612711
0.684,-118.818,-90.0062,38.7589,0.0029,-41.0951,180.011,2002.6487474562412
0.696,-117.13799999999999,-90.0062,38.7368,0.0029,-41.074,180.011,1753.5563668056518
0.708,-115.458,-90.0062,38.7225,0.0029,-41.0603,180.011,1738.3052051059476
0.72,-113.77799999999999,-90.0062,38.7139,0.0029,-41.0521,180.011,1903.5050654826741
0.732,-112.098,-90.0062,38.7093,0.0029,-41.0477,180.011,1897.570739187526
0.7440000000000001,-110.41799999999999,-90.0062,38.707,0.0029,-41.0455,180.011,2247.2481900053795
0.7559999999999999,-108.738,-90.0062,38.7064,0.0029,-41.0449,180.011,2468.1516233079246
0.768,-107.05799999999999,-90.0062,38.7062,0.0029,-41.0447,180.011,2595.82318856199
0.78,-105.37799999999999,-90.0062,38.7062,0.0029,-41.0447,180.011,2482.5926930231026
0.792,-103.698,-90.0062,38.7062,0.0029,-41.0447,180.011,2215.2872451124463
0.804,-102.01799999999999,-90.0062,38.7062,0.0029,-41.0447,180.011,2212.076390809879
0.816,-100.338,-90.0062,38.7062,0.0029,-41.0447,180.011,2136.97298086946
0.828,-98.6583,-90.0062,38.7062,0.0029,-41.0447,180.011,2228.551727126602
0.84,-96.9784,-90.0062,38.7062,0.0029,-41.0447,180.011,2489.5727352963686
0.852,-95.2983,-90.0062,38.7062,0.0029,-41.0447,180.011,2455.9961251826744
0.8640000000000001,-93.6184,-90.0062,38.7062,0.0029,-41.0447,180.011,2639.300255032739
0.8759999999999999,-91.9383,-90.0062,38.7062,0.0029,-41.0447,180.011,2472.742160255441
0.888,-90.2583,-90.0062,38.7062,0.0029,-41.0447,180.011,2301.5578516577716
0.9,-88.5783,-90.0062,38.7062,0.0029,-41.0447,180.011,2283.4621040710535
0.912,-86.8984,-90.0062,38.7062,0.0029,-41.0447,180.011,2102.436042943227
0.924,-85.2183,-90.0062,38.7062,0.0029,-41.0447,180.011,2276.4884284094396
0.9359999999999999,-83.5383,-90.0062,38.7062,0.0029,-41.0447,180.011,2424.7854346957743
0.948,-81.8583,-90.0062,38.7062,0.0029,-41.0447,180.011,2479.9350474949365
0.96,-80.1783,-90.0062,38.7062,0.0029,-41.0447,180.011,2651.234876354858
0.972,-78.4984,-90.0062,38.7062,0.0029,-41.0447,180.011,2448.4136877828323
0.9840000000000001,-76.8183,-90.0062,38.7062,0.0029,-41.0447,180.011,2284.322970391782
0.996,-75.1384,-90.0062,38.7062,0.0029,-41.0447,180.011,2196.902955637829
1.008,-73.4588,-90.0062,38.7062,0.0029,-41.0447,180.011,2206.195664317516
1.02,-71.7788,-90.0062,38.7062,0.0029,-41.0447,180.011,2344.5307025559564
1.032,-70.0976,-90.0062,38.7063,0.0029,-41.0447,180.011,2450.935296307994
1.044,-68.4179,-90.0061,38.707,0.0029,-41.0447,180.011,2504.174756587369
1.056,-66.738,-90.0055,38.7093,0.0029,-41.0444,180.011,2474.9330711830853
1.068,-65.0582,-90.0042,38.715,0.0029,-41.0438,180.011,2350.363346207361
1.08,-63.3785,-90.0017,38.7261,0.0029,-41.0426,180.011,2344.2653799487553
1.092,-61.6985,-89.9973,38.7456,0.0029,-41.0404,180.011,2280.9501738967606
1.104,-60.019,-89.9902,38.7769,0.0029,-41.037,180.011,2264.0206984174256
1.1159999999999999,-58.3441,-89.9794,38.8242,0.0029,-41.0317,180.011,2307.419012790678
1.128,-56.675,-89.964,38.8925,0.0029,-41.0242,180.011,2430.6568731829684
1.14,-55.0146,-89.9424,38.9874,0.0029,-41.0138,180.011,2425.812917695042
1.1520000000000001,-53.3661,-89.9136,39.1151,0.0029,-40.9997,180.011,2605.625154444611
1.1640000000000001,-51.7337,-89.8758,39.2817,0.0029,-40.9814,180.011,2475.303758596602
1.176,-50.1198,-89.8277,39.4936,0.0029,-40.958,180.011,1953.098656171088
1.188,-48.5296,-89.76799999999999,39.7571,0.0029,-40.929,180.011,2275.8471347398245
1.2,-46.967,-89.695,40.0793,0.0029,-40.8935,180.011,2415.6077130090594
1.212,-45.438,-89.6071,40.4669,0.0029,-40.8508,180.011,2213.821451240354
1.224,-43.946999999999996,-89.5027,40.9274,0.0029,-40.8001,180.011,2602.6150963924274
1.236,-42.5012,-89.3803,41.4674,0.0029,-40.7406,180.011,2259.673361499605
1.248,-41.1085,-89.2387,42.0924,0.0029,-40.6718,180.011,1763.3359594578642
1.26,-39.7781,-89.0771,42.8057,0.0029,-40.5932,180.011,1792.2005975266638
1.272,-38.5183,-88.895,43.6092,0.0029,-40.5047,180.011,1524.4931110401383
1.284,-37.338,-88.6927,44.5017,0.0029,-40.4063,180.011,1321.1444944029479
1.296,-36.2458,-88.4713,45.4782,0.00290001,-40.2988,180.011,1121.2053002512268
1.308,-35.2466,-88.2322,46.5332,0.00289995,-40.1826,180.011,1120.7227437116583
1.32,-34.3438,-87.9769,47.6596,0.0029002,-40.0585,180.011,1275.9505690723406
1.3319999999999999,-33.5383,-87.7072,48.8492,0.00289925,-39.9275,180.011,1182.9385925391382
1.344,-32.8279,-87.4248,50.0954,0.00290272,-39.7902,180.011,1382.8989856447713
1.3559999999999999,-32.2079,-87.1307,51.393,0.00289046,-39.6473,180.011,1623.948411296044
1.368,-31.673000000000002,-86.8265,52.7353,0.00293905,-39.4994,180.011,1686.7552081134481
1.38,-31.2161,-86.5134,54.1165,0.00301074,-39.3473,180.011,1979.5187075691215
1.392,-30.8289,-86.1921,55.5342,0.00299725,-39.1911,180.011,1972.2061835557415
1.4040000000000001,-30.5044,-85.8635,56.9837,0.00300066,-39.0314,180.011,2353.124741003324
1.416,-30.2359,-85.5289,58.4599,0.00299985,-38.8688,180.011,2384.853219875917
1.4280000000000002,-30.0166,-85.1883,59.9625,0.00300003,-38.7033,180.011,2287.5145456752016
1.44,-29.8403,-84.8428,61.4874,0.003,-38.5354,180.011,2466.003809882121
1.452,-29.7016,-84.4928,63.0313,0.003,-38.3652,180.011,2537.086948445198
1.464,-29.5949,-84.1391,64.5919,0.003,-38.1934,180.011,2438.099114065567
1.476,-29.5156,-83.7824,66.1655,0.003,-38.02,180.011,2822.606747773875
1.4880000000000002,-29.4589,-83.4229,67.7516,0.003,-37.8453,180.011,3080.3500116934433
1.5,-29.4206,-83.0616,69.346,0.003,-37.6697,180.011,3048.2999425983053
1.5119999999999998,-29.3962,-82.6985,70.9475,0.003,-37.4932,180.011,3149.790613424708
1.524,-29.3819,-82.3344,72.554,0.003,-37.3163,180.011,3639.368514581937
1.536,-29.3745,-81.9701,74.1614,0.003,-37.1392,180.011,3410.6152906968678
1.548,-29.3714,-81.6055,75.77,0.003,-36.961999999999996,180.011,3095.9249244274974
1.56,-29.3703,-81.2416,77.3753,0.003,-36.7852,180.011,3664.109354934519
1.5719999999999998,-29.3701,-80.87899999999999,78.9752,0.003,-36.609,180.011,3253.7542120801
1.584,-29.3701,-80.5181,80.5677,0.003,-36.4335,180.011,2803.0236463935325
1.5959999999999999,-29.3701,-80.1592,82.1509,0.003,-36.2591,180.011,2709.46926935706
1.608,-29.3701,-79.8033,83.7215,0.003,-36.0861,180.011,2727.323174037699
1.62,-29.3701,-79.4509,85.2761,0.003,-35.9149,180.011,2215.626648588599
1.632,-29.3701,-79.1025,86.8131,0.003,-35.7456,180.011,1580.0170997567984
1.6440000000000001,-29.3701,-78.7589,88.329,0.003,-35.5786,180.011,2093.7694843172367
1.656,-29.3701,-78.4208,89.8207,0.003,-35.4143,180.011,1573.466842054217
1.6680000000000001,-29.3701,-78.0886,91.2862,0.003,-35.2529,180.011,1177.446441177146
1.68,-29.3701,-77.7636,92.7204,0.003,-35.0949,180.011,1492.1685193463802
1.692,-29.3701,-77.4468,94.1183,0.003,-34.9409,180.011,1054.5874676319318
1.704,-29.3701,-77.1389,95.4766,0.003,-34.7913,180.011,604.7740742472935
1.716,-29.3701,-76.8416,96.7884,0.003,-34.6468,180.011,526.9815073153727
1.7280000000000002,-29.3701,-76.5565,98.0451,0.003,-34.51,180.011,415.072907185472
1.74,-29.3701,-76.2868,99.2291,0.003,-34.3957,180.011,418.04228447475225
1.7519999999999998,-29.3701,-76.0291,100.346,0.003,-34.325,180.011,397.4479525462105
1.764,-29.3701,-75.7765,101.417,0.003,-34.3168,180.011,392.3016799693921
1.776,-29.3701,-75.5254,102.446,0.003,-34.3798,180.012,399.79838172223845
1.788,-29.3701,-75.2746,103.43,0.003,-34.516999999999996,180.012,390.5469340993
1.8,-29.3701,-75.0247,104.36,0.003,-34.7283,180.012,388.47661658220505
1.8119999999999998,-29.3701,-74.7767,105.23100000000001,0.003,-35.0111,180.012,394.4684503170721
1.824,-29.3701,-74.5327,106.03399999999999,0.003,-35.3576,180.012,402.43661063055913
1.8359999999999999,-29.3701,-74.2946,106.766,0.003,-35.7557,180.012,392.8228115070358
1.848,-29.3701,-74.0646,107.426,0.003,-36.1857,180.012,382.4598173868539
1.86,-29.3702,-73.8438,108.01899999999999,0.003,-36.626,180.012,397.47007441128574
1.8719999999999999,-29.3702,-73.6345,108.54799999999999,0.003,-37.0558,180.012,405.9647505267791
1.8840000000000001,-29.3702,-73.4385,109.014,0.00299999,-37.4675,180.012,390.2998968339546
1.896,-29.3702,-73.2553,109.425,0.00300005,-37.8626,180.011,420.383589852614
1.9080000000000001,-29.3702,-73.0863,109.781,0.00299982,-38.2378,180.011,389.0191478501821
1.92,-29.3702,-72.9321,110.087,0.00300067,-38.5882,180.011,400.8533433815991
1.932,-29.3702,-72.7928,110.348,0.0029975,-38.9103,180.011,387.78579187039844
1.944,-29.3702,-72.6692,110.568,0.00300934,-39.2007,180.011,401.9826795010455
1.956,-29.3702,-72.5614,110.75299999999999,0.0029195000000000002,-39.4564,180.011,392.41431174265625
1.9680000000000002,-29.3702,-72.4697,110.90700000000001,0.0028951,-39.6743,180.011,383.57123077749515
1.98,-29.3702,-72.3938,111.03299999999999,0.00290131,-39.853,180.011,400.9844743358952
1.992,-29.3702,-72.3341,111.13,0.00289965,-39.9922,180.011,385.8110517981773
2.004,-29.3702,-72.2911,111.2,0.00290009,-40.0921,180.011,385.10236072491716
2.016,-29.3702,-72.2649,111.242,0.00289997,-40.1526,180.011,402.37587831276824
2.028,-29.3702,-72.2558,111.257,0.00290001,-40.1736,180.011,396.211825745805
2.04,-29.3702,-72.2637,111.244,0.0029,-40.1554,180.011,412.1902629742714
2.052,-29.3702,-72.2887,111.204,0.0029,-40.0976,180.011,390.8243001571641
2.064,-29.3702,-72.3305,111.13600000000001,0.0029,-40.0006,180.011,385.73037753753084
2.076,-29.3702,-72.3889,111.04,0.0029,-39.8641,180.011,405.62647944221436
2.088,-29.3702,-72.4637,110.917,0.0029,-39.6884,180.011,386.17222573290394
2.1,-29.3702,-72.5544,110.765,0.0029,-39.4734,180.011,412.8986269202508
2.112,-29.3702,-72.6609,110.58200000000001,0.0029,-39.2204,180.011,409.14745556903927
2.124,-29.3702,-72.7834,110.36399999999999,0.0029,-38.9324,180.011,404.79614508531466
2.136,-29.3702,-72.9214,110.10600000000001,0.0029,-38.6125,180.011,412.22407468164977
2.148,-29.3702,-73.0744,109.802,0.0029,-38.2642,180.011,366.69573510795817
2.16,-29.3702,-73.2422,109.448,0.0029,-37.8909,180.011,402.8629533182012
2.1719999999999997,-29.3702,-73.42399999999999,109.04,0.00290002,-37.4975,180.012,407.2931838254222
2.184,-29.3702,-73.6199,108.574,0.00289994,-37.0851,180.012,395.9119603806291
2.1959999999999997,-29.3702,-73.8288,108.04799999999999,0.00290019,-36.6562,180.012,408.5474154780032
2.208,-29.3702,-74.048,107.461,0.00289937,-36.2179,180.012,427.17790685424313
2.22,-29.3702,-74.2762,106.81,0.00290179,-35.7885,180.012,1136.7979080477342
2.2319999999999998,-29.3702,-74.5126,106.088,0.00289748,-35.3885,180.012,1406.9855688563641
2.244,-29.3702,-74.756,105.292,0.00300405,-35.0376,180.012,1488.3867347276578
2.256,-29.3702,-75.0047,104.42399999999999,0.00299769,-34.7482,180.012,1824.6626859373675
2.2680000000000002,-29.3702,-75.2572,103.49,0.00300073,-34.529,180.012,2171.8214569607712
2.28,-29.3702,-75.5121,102.49600000000001,0.00299982,-34.3852,180.012,2799.3081952178936
2.292,-29.3702,-75.7684,101.449,0.00300003,-34.3176,180.012,3106.6249146880177
2.3040000000000003,-29.3701,-76.0263,100.35799999999999,0.00299999,-34.3239,180.011,3632.872234662997
2.316,-29.3701,-76.2874,99.2266,0.003,-34.3946,180.011,3922.8782953800674
2.3280000000000003,-29.3701,-76.5581,98.0388,0.003,-34.5095,180.011,3883.8506160679503
2.34,-29.3701,-76.8428,96.78299999999999,0.003,-34.6471,180.011,4099.675669265839
2.352,-29.3701,-77.1397,95.4731,0.003,-34.7916,180.011,4713.85180925576
2.364,-29.3701,-77.4466,94.1188,0.003,-34.9408,180.011,5306.142550299129
2.376,-29.3701,-77.7625,92.7249,0.003,-35.0944,180.011,5977.03770438946
2.388,-29.3701,-78.0865,91.2953,0.003,-35.2519,180.011,6150.119143742328
2.4,-29.3701,-78.4173,89.8362,0.003,-35.4126,180.011,6407.6094041517
2.412,-29.3701,-78.7545,88.3483,0.003,-35.5764,180.011,6101.342135996631
2.424,-29.3701,-79.0974,86.8358,0.003,-35.7431,180.011,5392.94846970405
2.436,-29.3701,-79.4449,85.3025,0.003,-35.912,180.011,4854.78606473612
2.448,-29.3701,-79.7969,83.7493,0.003,-36.083,180.011,5396.093036279829
2.46,-29.3701,-80.1527,82.1795,0.00299999,-36.256,180.011,8152.882105136404
2.472,-29.3701,-80.5114,80.5967,0.00300004,-36.4303,180.011,7869.376115452236
2.484,-29.3702,-80.8729,79.0019,0.00299983,-36.606,180.011,6855.934591696317
2.496,-29.3706,-81.2364,77.3982,0.00300068,-36.7826,180.011,7995.694870470695
2.508,-29.3722,-81.6015,75.7874,0.00299732,-36.9601,180.011,7971.062609639407
2.52,-29.3766,-81.9674,74.173,0.00301035,-37.1379,180.011,6041.711836934633
2.532,-29.3855,-82.3338,72.5565,0.00292932,-37.3159,180.011,5403.593862809489
2.544,-29.4017,-82.7003,70.9397,0.00289245,-37.4941,180.011,5605.119527157582
2.556,-29.4281,-83.0662,69.3253,0.00290218,-37.6719,180.011,3811.946968181296
2.568,-29.4687,-83.431,67.7156,0.00289937,-37.8492,180.011,4382.835139383407
2.58,-29.5279,-83.7943,66.1127,0.00290018,-38.0258,180.011,5876.627611410056
2.592,-29.6108,-84.1553,64.52,0.00289995,-38.2012,180.011,5043.742939776726
2.6039999999999996,-29.7231,-84.5136,62.9395,0.00290001,-38.3753,180.011,5494.683412959999
2.616,-29.8711,-84.8685,61.3734,0.0029,-38.5478,180.011,6158.649796354116
2.628,-30.0608,-85.2193,59.8253,0.0029,-38.7184,180.011,4003.9842887957325
2.64,-30.2987,-85.5656,58.2976,0.0029,-38.8866,180.011,3643.4707248173
2.6519999999999997,-30.5909,-85.9064,56.7942,0.0029,-39.0522,180.011,3353.0663545550947
2.6639999999999997,-30.9439,-86.2409,55.3185,0.0029,-39.2148,180.011,2153.1378577393625
2.676,-31.3646,-86.5684,53.8737,0.0029,-39.3739,180.011,2433.696832808063
2.688,-31.8594,-86.8877,52.4647,0.0029,-39.5291,180.011,3146.553050542564
2.7,-32.4344,-87.1975,51.0976,0.0029,-39.6797,180.011,2604.103197242869
2.7119999999999997,-33.0952,-87.4966,49.7782,0.0029,-39.8251,180.011,3530.2471696837765
2.7239999999999998,-33.8453,-87.7829,48.5148,0.0029,-39.9642,180.011,3424.9544717125596
2.736,-34.6879,-88.0549,47.315,0.0029,-40.0963,180.011,2245.1958551889325
2.748,-35.6227,-88.3103,46.1882,0.0029,-40.2205,180.011,2340.23854505103
2.76,-36.6473,-88.5472,45.1432,0.0029,-40.3356,180.011,1596.0219963116042
2.772,-37.7565,-88.764,44.1868,0.0029,-40.441,180.011,1134.538261996317
2.784,-38.9445,-88.9597,43.3229,0.0029,-40.5362,180.011,1361.4259114236959
2.7960000000000003,-40.2029,-89.1341,42.5532,0.0029,-40.6209,180.011,1747.2837682969243
2.8080000000000003,-41.5251,-89.2877,41.8759,0.0029,-40.6955,180.011,1802.3212789662794
2.82,-42.9021,-89.4209,41.288000000000004,0.0029,-40.7603,180.011,2497.7166410364216
2.832,-44.3285,-89.5353,40.7834,0.0029,-40.8159,180.011,2867.8425563963997
2.844,-45.7984,-89.6324,40.3548,0.0029,-40.8631,180.011,2947.5860964446356
2.8560000000000003,-47.3058,-89.714,39.9948,0.0029,-40.9027,180.011,3262.6617298944648
2.8680000000000003,-48.8465,-89.7819,39.6956,0.0029,-40.9357,180.011,3471.548142544464
2.88,-50.4158,-89.8374,39.4506,0.0029,-40.9626,180.011,3031.0378592813445
2.892,-52.0106,-89.8822,39.253,0.0029,-40.9844,180.011,2848.1606572957944
2.904,-53.6273,-89.9176,39.0966,0.0029,-41.0016,180.011,3068.9799929536343
2.9160000000000004,-55.2622,-89.945,38.9756,0.0029,-41.015,180.011,3100.0310264708924
2.928,-56.9107,-89.9657,38.8845,0.0029,-41.025,180.011,3305.9892685244404
2.94,-58.5716,-89.9807,38.8183,0.0029,-41.0323,180.011,3882.4576118395585
2.952,-60.2413,-89.9911,38.7723,0.0029,-41.0374,180.011,3921.014160488101
2.964,-61.9167,-89.99799999999999,38.7422,0.0029,-41.0407,180.011,4263.675308874481
2.9760000000000004,-63.596000000000004,-90.0021,38.7238,0.0029,-41.0427,180.011,4246.886319894094
2.988,-65.2755,-90.0044,38.7135,0.0029,-41.0438,180.011,3970.821006422873
3.0,-66.9553,-90.0056,38.7086,0.0029,-41.0444,180.011,4059.978803325451
